q0	li		MMAX	deltaW		pdeltaW		alphaw		gammaw		H3(a)=-0.5
0.45	1.956e+00	5	-4.106e+00	6.979e+01 	1.291e-01 	4.555e-01
0.5	1.860e+00 	5	-4.073e+00 	6.991e+01	1.289e-01 	4.519e-01
0.55	1.775e+00 	5	-4.042e+00  	7.005e+01 	1.287e-01 	4.485e-01
0.6	1.698e+00 	5	-4.012e+00 	7.021e+01 	1.283e-01 	4.454e-01
0.65	1.628e+00	5	-3.983e+00 	7.037e+01	1.279e-01 	4.424e-01
0.7	1.565e+00 	5	-3.954e+00	7.055e+01	1.275e-01	4.396e-01
0.8	1.453e+00	5	-3.897e+00  	7.092e+01	1.266e-01 	4.343e-01		
0.9	1.357e+00 	5	-3.843e+00 	7.131e+01	1.255e-01 	4.292e-01
1.0	1.273e+00 	5	-3.789e+00 	7.170e+01 	1.245e-01 	4.244e-01
1.1	1.199e+00 	5	-3.736e+00 	7.211e+01 	1.234e-01 	4.198e-01
1.2	1.134e+00	5	-3.684e+00	7.251e+01	1.224e-01 	4.153e-01
1.3	1.075e+00	5	-3.634e+00	7.291e+01	1.213e-01 	4.108e-01
1.4	1.022e+00 	5	-3.584e+00 	7.331e+01 	1.203e-01 	4.065e-01
1.5	9.731e-01	5	-3.536e+00	7.370e+01 	1.193e-01 	4.023e-01
1.6	9.289e-01 	5	-3.489e+00 	7.409e+01	1.183e-01 	3.981e-01	
1.7	8.882e-01	5	-3.443e+00	7.448e+01 	1.173e-01 	3.941e-01	
1.8	8.506e-01	5	-3.399e+00  	7.486e+01	1.164e-01 	3.902e-01
1.9	8.159e-01	5	-3.357e+00	7.523e+01	1.155e-01	3.864e-01
2.0	7.836e-01 	5	-3.315e+00	7.561e+01	1.146e-01 	3.827e-01