q0	li		MMAX	deltaW		pdeltaW		alphaw		gammaw		H3(a)=0.0
0.4	2.080e+00	5	-4.072e+00 	6.717e+01	1.298e-01 	4.669e-01
0.45	1.973e+00 	5	-4.033e+00 	6.736e+01 	1.291e-01	4.639e-01
0.5	1.878e+00 	5	-3.992e+00	6.756e+01	1.283e-01 	4.605e-01
0.55	1.794e+00 	5	-3.950e+00 	6.777e+01	1.275e-01 	4.570e-01
0.6	1.718e+00	5	-3.907e+00 	6.800e+01 	1.268e-01 	4.532e-01
0.65	1.649e+00	5	-3.864e+00	6.825e+01 	1.260e-01	4.492e-01
0.7	1.586e+00 	5	-3.820e+00 	6.850e+01 	1.253e-01 	4.451e-01
0.8	1.474e+00 	5	-3.730e+00	6.902e+01 	1.238e-01 	4.365e-01
0.9	1.378e+00	5	-3.640e+00	6.956e+01 	1.224e-01 	4.276e-01
1.0	1.295e+00 	5	-3.550e+00	7.011e+01	1.210e-01 	4.185e-01
1.1	1.221e+00 	5	-3.462e+00	7.067e+01	1.197e-01 	4.093e-01
1.2	1.155e+00 	5	-3.375e+00  	7.123e+01 	1.184e-01 	4.002e-01
1.3	1.096e+00	5	-3.291e+00	7.178e+01	1.172e-01 	3.911e-01
1.4	1.042e+00	5	-3.209e+00 	7.233e+01 	1.161e-01 	3.822e-01
1.5	9.932e-01 	5	-3.130e+00 	7.288e+01  	1.150e-01 	3.735e-01
1.6	9.484e-01 	5	-3.054e+00	7.341e+01	1.139e-01 	3.651e-01
1.7	9.072e-01	5	-2.981e+00  	7.393e+01  	1.130e-01 	3.570e-01	
1.8	8.691e-01	5	-2.912e+00	7.445e+01	1.120e-01 	3.491e-01
1.9	8.338e-01	5	-2.845e+00	7.494e+01 	1.111e-01 	3.416e-01
2.0	8.010e-01	5	-2.782e+00 	7.543e+01 	1.103e-01 	3.344e-01